low-high	dnds	dn	ds	Pi	dnds-z	dn-z	ds-z	Pi-z	dnds-p	dn-p	ds-p	Pi-p
0	0.053887762697878545	0.05047302250358117	1.1695066962401615	0.14217849680561537	1.752814243755172	-0.693837591239355	-0.9096530601048101	-0.802969569055756	0.07963389739296829	1.5122159347414388	1.6369944935307816	1.5780076763890392
25000	0.0418309922858286	0.059176597534316505	1.4742513315467674	0.16247081359938165	-0.6496560507474021	0.033071473987039704	0.15188557746141765	0.42128940790867037	1.4840855813521778	0.9736175907623422	0.8792771838302244	0.6735437638095463
50000	0.04405958250188962	0.0595435723452674	1.4539662534730493	0.16072559528072683	-0.20558009925092333	0.06372064008808855	0.08122512393240211	0.315998365240133	1.1628810760234733	0.9491926697297992	0.935262919517531	0.7520037489588454
75000	0.04306081515767975	0.054886685273790536	1.332659232677654	0.1503793461701155	-0.4045976465358329	-0.32521533346738174	-0.3413322393918229	-0.3082028277684064	1.3142267112346295	1.254981895511817	1.2671465198661565	1.2420719991159817
100000	0.035406725770899206	0.044730823515078545	1.3146662178219242	0.14211813022401362	-1.929775762628129	-1.1734171300307543	-0.40400858628286324	-0.8066115548470135	1.9463653721353213	1.759371428883342	1.3137935947949015	1.5801096855029653
125000	0.03112146762172127	0.0417679781152227	1.3681733461103742	0.1424432008183918	-2.7836698864961336	-1.42086937493173	-0.21762340510894088	-0.7869996693556097	1.9946252293277313	1.844645262363245	1.1722774531125983	1.5687179402840918
150000	0.04337713075984736	0.04772185129490392	1.2688852280701752	0.13757426217172142	-0.34156759686881155	-0.9236111365371412	-0.5634807602182957	-1.0807483776502869	1.2673236739987082	1.6443111864934965	1.4268924423217157	1.7201909429546438
175000	0.0506161446801236	0.053717177571379435	1.2588820734090127	0.14639956357783848	1.1009012659016548	-0.42289079989728373	-0.5983254594849166	-0.54830772138305	0.27093963105677354	1.3276250644688408	1.4503772080034123	1.416519373536008
200000	0.051293965757534865	0.06218967110040897	1.3204364089235432	0.15973701805100346	1.2359660426051056	0.28471869730069754	-0.3839088696977075	0.25635635589188294	0.216471186259085	0.7758596649032231	1.2989540078747217	0.7976756849658294
225000	0.044183829021197656	0.057945747211165174	1.317377537553033	0.15468952430907756	-0.18082234392910296	-0.06972723282895106	-0.394564053648279	-0.04816478812173908	1.1434929757147931	1.0555892341338877	1.3068353534819097	1.038415087389733
250000	0.041905566024859835	0.05136236110111119	1.4157255102759179	0.1488511462283997	-0.63479625109546	-0.6195614131955743	-0.051981573511708574	-0.40040090038162396	1.474438691348777	1.4644534223256862	1.0414566242309673	1.3111387388180666
275000	0.03922451559315044	0.04930344996990024	1.3973877438617992	0.14669703194457528	-1.1690308595448027	-0.7915184722761949	-0.11585881799762417	-0.5303611102571902	1.757608801652534	1.5713584989332312	1.0922355656928149	1.4041384157873442
300000	0.0405030663952428	0.05494755977593973	1.3695577421458243	0.1517711237094902	-0.914262773476796	-0.32013118961877596	-0.21280104004960143	-0.22423527670788088	1.6394212135448467	1.251131117099361	1.1685178475180773	1.1774257645684578
325000	0.04143371960475803	0.05799261049319015	1.4433170162060922	0.1542667161191163	-0.7288178646055766	-0.06581328431814737	0.044129879226579745	-0.07367329596512012	1.5338869177381311	1.0524735201889805	0.9648008757993279	1.0587296522386536
400000	0.04883838324431392	0.060505542999656	1.3326825473569548	0.15326368500203197	0.7466588863688747	0.1440629346839864	-0.34125102571311355	-0.1341873250799413	0.45526949307588593	0.885450773184478	1.2670853868337986	1.1067455516139117
425000	0.04899558124705476	0.057891757041382254	1.2711404200387455	0.14832107871344574	0.7779826587418271	-0.07423640793340253	-0.555625089822793	-0.43238048754137925	0.43657923643748964	1.059177723578498	1.421532824033964	1.3345351026085583
450000	0.041435064923301866	0.05524794225146199	1.3640341438230996	0.14747724443853713	-0.7285497921676225	-0.29504371191895656	-0.23204178248980514	-0.4832899867684212	1.5337228997968433	1.2320395120978926	1.1834944384276056	1.3711101511747372
475000	0.042834030111255375	0.05251508223684213	1.3258493540914174	0.1427675622947475	-0.4497875538369957	-0.5232879347362189	-0.3650535732527194	-0.7674305657758801	1.347136366963101	1.3992261041350083	1.2849285840288343	1.5571744388215603
500000	0.046020687148684285	0.0589376444174161	1.3751374926286304	0.15109068846505488	0.18519582973469592	0.013114480886431879	-0.19336469880107307	-0.26528672315971324	0.8530754399066739	0.9895364581153776	1.1533266400541171	1.2092114084059475
525000	0.04258566024696446	0.06360000343997249	1.502037948854981	0.16269526165744774	-0.4992785203741204	0.40250746329517656	0.24867667552376305	0.4348306192322617	1.38241681502983	0.68731059686516	0.803610892402462	0.6636853779862213
550000	0.039878896664801065	0.05388690920965385	1.384277023177438	0.1530173447297595	-1.0386368126983814	-0.40871507715327315	-0.16152832275784962	-0.14904931904457688	1.7010263217283232	1.3172512321133742	1.128322694089662	1.1184852833973078
575000	0.04572956777982034	0.04808959205696215	1.2319006707475109	0.14379363016332472	0.12718646139249398	-0.8928979993895427	-0.6923116961650134	-0.7055267027597891	0.8987928206000957	1.628088201414097	1.5112583934762511	1.5195174796503146
600000	0.05509684617653392	0.046088939122604665	1.0943203412655054	0.13521042266594782	1.9937400507308298	-1.0599894243753252	-1.1715550317115178	-1.2233615530929003	0.046180470061517744	1.7108505893782975	1.7586242488563806	1.7788068320077939
625000	0.05881237244876847	0.03301383022341227	0.751634392287024	0.09807040449044814	2.734107594643419	-2.1520022069482194	-2.3652573425847208	-3.4640618692808154	0.006254960143993856	1.968602819455677	1.9819824537359947	1.9994679158817588
650000	0.04924557525173247	0.0350502917678067	0.9299209104298998	0.10536204732138507	0.82779725664125	-1.981920102482213	-1.7442192482622367	-3.0241486113064897	0.40778532860183847	1.9525118163559154	1.918879133801993	1.9975066607235736
675000	0.0407525884407539	0.05390605584221992	1.3714641233230134	0.14863925131242778	-0.8645422196571098	-0.40711598014638933	-0.20616040706362884	-0.4131847661022422	1.612709902132702	1.3160771929045172	1.1633343859371297	1.3205287515151116
700000	0.04836477136317209	0.05811656990962253	1.2830110909090908	0.15208502230640128	0.6522854814950836	-0.05546038643346527	-0.5142751386742671	-0.20529741076430438	0.5142170242141971	1.0442283116017546	1.3929403590516765	1.1626602331121
725000	0.0464678639222346	0.05901095274728712	1.3916689145948646	0.1573374956778502	0.27430169126560927	0.019237078709932173	-0.13577962225522086	0.11159039172842627	0.7838527848993478	0.9846519785363321	1.1080044990610567	0.9111481907271525
750000	0.039063925743857586	0.05220944400715982	1.4010899809343897	0.15293246842873234	-1.201030502014492	-0.5488143648584676	-0.10296255259157076	-0.15417000459862634	1.7702606303740551	1.4168671488364302	1.0820073083512425	1.1225243077360425
775000	0.03749562794376698	0.05447931866110288	1.4576332282646087	0.15875606355400865	-1.5135344934553314	-0.3592379600992578	0.09399855772986758	0.19717423483863547	1.8698560537243203	1.2805829187153823	0.9251103024296754	0.8436911924307604
800000	0.043613012718355305	0.052928380316115374	1.3698521877319718	0.1486793340932631	-0.2945650100269776	-0.4887699212298772	-0.211775376821627	-0.4107665255061561	1.2316738053116902	1.3749954048388664	1.1677177207319382	1.3187562590506976
825000	0.04550643322501715	0.05591030181663306	1.3773175990630169	0.14983802179508382	0.08272396262450314	-0.23972447003708514	-0.18577057918095377	-0.3408615543355858	0.9340710307547225	1.1894561363525742	1.1473753226976477	1.2667921914215454
850000	0.053071446081608666	0.058769098727210166	1.3597991182490543	0.15529743564804777	1.590152406922219	-0.0009621933173155555	-0.24679394793287224	-0.01148879289179265	0.11180045539867206	1.0007677190739326	1.1949323055018488	1.0091665288182143
875000	0.05614767763824594	0.058390589095287264	1.2379166713249632	0.15481135585343578	2.2031320591221233	-0.0325747297461556	-0.671355733970105	-0.040814549931893616	0.027585442185368327	1.0259862781258613	1.498006062680806	1.0325562601437666
900000	0.05090701594984954	0.0520058501891985	1.1566505150785464	0.14284682870922114	1.1588611972230978	-0.5658182042437221	-0.9544359092626786	-0.7626483311755926	0.24651276770877684	1.4284826299411992	1.6601369632880756	1.5543268474613792
925000	0.048632082373121575	0.050047993299531864	1.2065664811574266	0.14150587982265767	0.7055507207630782	-0.7293353700622367	-0.7805600785335662	-0.8435493307366726	0.48046757918854943	1.5342034586050106	1.5649387206712415	1.6010787114366911
950000	0.04578142296354455	0.057362840222833764	1.3272677988476091	0.1579136186599809	0.13751928969192687	-0.11841071892582683	-0.36011260386556065	0.14634855856947054	0.890620346624746	1.0942577669436713	1.2812370722881283	0.8836462342843634
975000	0.04574725625382709	0.05631446770059642	1.2954059155898583	0.15469390136490663	0.13071112279882144	-0.20596916329580653	-0.4710993653214197	-0.047900715273583486	0.8960038331201707	1.1631850010390663	1.362430221660974	1.0382046306590793
1000000	0.049077023171540536	0.05852000025170532	1.3321028112126327	0.15445279516566457	0.7942110348008623	-0.021766511007359084	-0.34327046180974036	-0.06244693154961464	0.4270725855484151	1.017365791800786	1.2686049996881525	1.0497930781106832
1025000	0.05044849296619507	0.057803882097148374	1.268067591004913	0.15193437671084237	1.0674944538972415	-0.08157558675868976	-0.5663288934935831	-0.21438603403869597	0.2857486167424994	1.065015784479227	1.4288297776253787	1.1697539682859222
1050000	0.04739002015919426	0.05747368616658911	1.3079309758055266	0.15090737442108013	0.4580534664484279	-0.1091530379068437	-0.4274699332777728	-0.27634627176722815	0.6469140293132507	1.086918892010516	1.330962919924206	1.2177178806930902
1075000	0.0443730106158989	0.051950947678693085	1.2396306804400468	0.1406256035697949	-0.14312541962820421	-0.5704035766279599	-0.665385204254393	-0.8966574167048019	1.1138088703466906	1.4315959957121986	1.4941958540871	1.63009825007782
1100000	0.043562517809607494	0.047182572091147415	1.1147707622504537	0.1347482306237903	-0.30462678562228884	-0.9686508978437728	-1.1003186274736667	-1.2512461343579975	1.2393495829271	1.667280600753399	1.7288066811565106	1.7891553088006633
1125000	0.04394169976208007	0.06063556032939491	1.3841964996524925	0.15786712016706503	-0.22906978769551398	0.15492178007682725	-0.16180881607277425	0.14354325063217915	1.1811853249172286	0.8768829829274934	1.1285435896855203	0.8858611558298444
1150000	0.047176661039683106	0.054839857359761796	1.2975000094302696	0.14632261185771384	0.4155388519066702	-0.3291263280980856	-0.46380485948032607	-0.5529503077921284	0.6777474796782552	1.2579397951207847	1.3572124385707542	1.4197025624339212
1175000	0.05183709380678816	0.05094033899955214	1.1762830356134504	0.13993850293669036	1.3441914595159274	-0.6548080434901203	-0.8860485557670381	-0.938110993775636	0.17888648268210838	1.4874086487467193	1.624408637257932	1.651812627380027
1200000	0.04899578761073915	0.062348143158638514	1.4385084251434093	0.16032101804437593	0.77802377942379	0.29795403741155424	0.027379772370201755	0.29158975194516384	0.4365549947118459	0.7657382439776407	0.9781568315105317	0.7706003118584277
1225000	0.042941722194540725	0.06305933812779498	1.4729285793988653	0.16320315708594013	-0.42832848791768696	0.35735193636659557	0.14727794093482557	0.46547253873363736	1.3315880189504379	0.7208283536029395	0.8829126431841294	0.641593098100285
1250000	0.04817656099233535	0.05281159341897677	1.212959720650511	0.14718854138274445	0.6147820863403859	-0.49852378144592957	-0.7582900532243587	-0.5007077765320733	0.5386986410714092	1.3818850884820228	1.5517226393748353	1.3834232014857666
1275000	0.045985433605076925	0.048544243689800474	1.270826692735208	0.1429639668632231	0.1781710968752243	-0.8549262013337916	-0.5567179184267464	-0.7555812506623413	0.8585886078708038	1.6074079956517706	1.4222798275599977	1.5500996992366627
1300000	0.04508662327074288	0.05510082511891629	1.365759312005504	0.15291621359240254	-0.0009286997395748664	-0.30733070627701475	-0.22603238160214167	-0.15515067770254534	1.0007409950773125	1.2414083343400837	1.1788237648945508	1.1232974691751825
1325000	0.045177356606951775	0.05958573187738823	1.3480568440111937	0.15715999024145696	0.017151112474907398	0.06724173871435533	-0.28769664597002226	0.10088128314447459	0.9863160630382861	0.9463892576070285	1.2264210423415707	0.9196447011868164
1350000	0.04515533309130073	0.06107125578937399	1.392836034958097	0.15796781991618636	0.012762636927652319	0.19131038802452205	-0.131714108980426	0.1496185831382105	0.9898171654793768	0.8482824229360209	1.1047895746025045	0.8810655459975122
1375000	0.04513489433599101	0.05768829033367733	1.3513258787350393	0.15322976653411283	0.008689945749993464	-0.09122963126751343	-0.27630938508053593	-0.13623366553760877	0.99306651371586	1.0726898692265763	1.2176895518406932	1.1083634379917346
1400000	0.040434971915947124	0.045742382213395126	1.1885503474372205	0.13800479361871454	-0.9278314952933765	-1.0889333190429364	-0.8433169570076267	-1.054773916764247	1.646505016113494	1.7238167081645912	1.6009487983206034	1.7084712635003982
1425000	0.04059518547949783	0.04499255159958721	1.1629694673571183	0.1382536010428103	-0.8959068327135633	-1.151558007017298	-0.93242465388523	-1.0397630766723858	1.629697475396377	1.7504972542433759	1.6488828913829334	1.7015500126182086
1450000	0.04993379221833818	0.05489736200754464	1.2502100952114412	0.14926304101121807	0.9649335511824818	-0.32432362925095837	-0.6285331772076328	-0.37555081103228455	0.33457809523018867	1.2543069678676098	1.4703452803377575	1.2927491347970708
1475000	0.054705939938273065	0.05773763458892328	1.2429858771929825	0.15131633616274132	1.9158468344497241	-0.0871084757275818	-0.6536978090479291	-0.25167313618827225	0.05538459436946036	1.0694147116590162	1.486693484913797	1.1987062770300225
1500000	0.0491809613700532	0.057599850934525874	1.3135694059740852	0.15393162963768217	0.8149220897398546	-0.09861595249061417	-0.4078291889111918	-0.09388945152411353	0.4151169079281706	1.0785567964923009	1.31660091744051	1.0748030267141704
1525000	0.045010907055951135	0.06373592100204375	1.50714984088441	0.16376403405081788	-0.016016152733416146	0.4138590869261761	0.26648329218444994	0.49931089569419324	1.012778494669949	0.6789773082947037	0.7898670252522246	0.6175603804800658
1550000	0.04401851896128072	0.05862177619409234	1.444905483121418	0.15647165590927192	-0.21376255053168933	-0.013266342412060107	0.04966309887921628	0.05935327557910751	1.169267769753658	1.0105846993108203	0.9603908629818613	0.9526707280949065
1575000	0.04153318205030511	0.0483452196668141	1.2958461056235362	0.1436048736314884	-0.708998662391473	-0.8715483785420922	-0.46956602010551285	-0.7169146029640804	1.521674693091177	1.6165451974032996	1.3613348936033025	1.5265732091004969
1600000	0.04511752931263202	0.04994278862692176	1.3661527473472523	0.14473807967371652	0.005229736145138291	-0.7381219008791026	-0.22466190032613925	-0.648546969832398	0.9958272932934157	1.5395596237823388	1.1777576939447107	1.4833687581866004
1625000	0.04513325309883644	0.04820017108804305	1.2966382392399685	0.13986863828425117	0.008362907631547699	-0.8836626105024699	-0.4668067248053285	-0.9423260091822283	0.9933274428952572	1.623121630373848	1.3593618358842252	1.6539742440344323
1650000	0.04451860897907147	0.05873823676839155	1.4017216903369536	0.15577273358529697	-0.11411302820863267	-0.0035397361725989502	-0.1007620743522714	0.01718648220487702	1.0908518053282819	1.0028242949434878	1.0802606661537781	0.9862878462358312
1675000	0.04189450158190452	0.061580515665105445	1.5204899280913449	0.15848572762232901	-0.6370009870750718	0.23384298169068915	0.3129517656472128	0.18086455494754966	1.475875799353928	0.8151068799304799	0.7543173081093334	0.8564738910203509
1700000	0.044319125394322395	0.06008633478633663	1.4197162497111966	0.15739722494896544	-0.15386275970568095	0.10905131596373481	-0.03808034733017007	0.11519392783983026	1.122282052165138	0.9131617887425736	1.0303763794976648	0.9082914115201888
1725000	0.0469417770511442	0.059704530013759895	1.366133607957803	0.15992032623755356	0.3687351237246167	0.07716357450661489	-0.22472856992109186	0.26741555111418364	0.7123251657795469	0.9384934185503616	1.1778095625486835	0.7891492272363265
1750000	0.04177622887048886	0.052123442329498386	1.33137124571596	0.15090162336869303	-0.6605683824981785	-0.5559970913698165	-0.34581877587553844	-0.2766932394192438	1.491110848972804	1.4217871568406928	1.2705210863354786	1.2179843365550833
1775000	0.040017727910956605	0.048984700541343046	1.217687311299404	0.145981465026051	-1.0109728584686393	-0.8181399293597197	-0.7418221008636958	-0.573532091300185	1.6879705795959588	1.5867227088324694	1.5418048717677242	1.4337155230664385
1800000	0.04253874961333926	0.05512284829721362	1.3289818280013759	0.1514406509044043	-0.508626081945683	-0.30549136463948195	-0.35414200434768	-0.24417308382871672	1.388985656529953	1.2400080541390317	1.2767675356632735	1.1929032277624452
1825000	0.04032594111716085	0.05888854685733943	1.4996754572706277	0.15669301992952536	-0.9495573179073762	0.009013928943787913	0.24044724075391707	0.07270842332918899	1.657662765296282	0.9928080226561661	0.809983559328799	0.942038145445953
1850000	0.043739258683272726	0.050454236244205274	1.3357000731403672	0.14650709417070007	-0.26940883883441785	-0.6954065904372488	-0.3307398637833168	-0.5418202761619333	1.2123849148704875	1.5131994684499208	1.25915901166515	1.4120576780926593
1875000	0.04642677984238862	0.05663170724560132	1.393212686299991	0.15620971022881427	0.2661151472713491	-0.179473809340907	-0.13040209260347063	0.04354978926275721	0.790150529654442	1.1424343194577105	1.103751688929721	0.9652632760545824
1900000	0.046515030197548754	0.05973795567349748	1.4437464293085656	0.16127681786064488	0.283700192810545	0.0799552336798423	0.045625684392416474	0.34925426197329795	0.776640146957853	0.9362728602754109	0.9636085973008729	0.7268984326331458
1925000	0.04709878750660087	0.057996784657722754	1.4592231009287928	0.16045997411336502	0.4000215248311662	-0.0654646645811103	0.09953667412736789	0.29997313254150065	0.6891406629424162	1.0521959604586888	0.9207121707252338	0.7641976495472932
1950000	0.04690280419983106	0.06028197089574799	1.4824226805724952	0.1642957006418671	0.360969269820797	0.1253905398935044	0.1803494180245896	0.5313869569670017	0.718122419593737	0.9002143770780169	0.8568782616793164	0.5951506580282523
1975000	0.04653772782317547	0.051033718020541546	1.3313503774141235	0.1407720384460772	0.2882229936486064	-0.6470091727250076	-0.3458914679138334	-0.8878228310016875	0.773176048876748	1.4823739931183741	1.2705757190367866	1.625363940152508
2000000	0.052336477390224664	0.05284666291955376	1.2351378245245466	0.14148561590871753	1.4437002154900298	-0.49559483123956516	-0.6810354884424082	-0.8447718761365783	0.14882332080193977	1.3798196997251224	1.5041509647892464	1.6017617801262354
2025000	0.049917359359360494	0.05611121566170326	1.3132457566096611	0.15434062043291802	0.9616590876073788	-0.22294445782425543	-0.4089565797347062	-0.06921456310934554	0.3362208799101507	1.1764212652994912	1.3174284740087694	1.0551811687770016
2050000	0.04723658330779124	0.0522911594236135	1.2980423563811492	0.14854353681807814	0.4274791530145969	-0.541989620224318	-0.46191566381738774	-0.41895933241342637	0.6690303661227958	1.412174343570697	1.3558581992863972	1.3247541462268964
2075000	0.048590876006922204	0.05233745605435156	1.253686531045752	0.1440989906528606	0.6973398096023711	-0.5381229975486825	-0.6164234612960544	-0.6871039507239346	0.4855901600650473	1.4095078636252552	1.4623849271113485	1.5079827751954835
2100000	0.03998848644624017	0.06326939764895675	1.6397920157052537	0.16948712233298208	-1.0167996054288997	0.3748957812384323	0.7285252027876508	0.8445914408684051	1.690751230123598	0.7077379767237594	0.46629214661949825	0.39833898952015734
2125000	0.04049205936993674	0.07184605656297605	1.8531564659197013	0.1826430638881084	-0.916456068233593	1.0912050095658017	1.4717527498709126	1.63830463354981	1.640572260643435	0.2751826840763947	0.14108765727378164	0.10135816159143543
2150000	0.05103396265784017	0.09597755303290907	1.9231593108588467	0.20006995731199895	1.1841570007019113	3.106630105521003	1.7155986327285249	2.689689299560661	0.23635091983094647	0.0018923301663269691	0.08623552893578895	0.007151857153242177
2175000	0.041893821206898746	0.07156541432557428	1.670449136184688	0.17108780481502459	-0.637136560755637	1.0677662058865824	0.8353153284700929	0.9411624690967954	1.4759641042536968	0.28562598557238095	0.40354018908115763	0.34662160656860785
2200000	0.03161612037713143	0.049050142860033584	1.5395267476071957	0.1461481257729257	-2.685103810312164	-0.8126742885698606	0.379264071463913	-0.5634772553963988	1.992749271837658	1.5835951736217444	0.7044917769568161	1.4268900563796167
2225000	0.03873307600491125	0.051230238791423015	1.4144221661793372	0.14833047764845692	-1.26695666985195	-0.6305960632436098	-0.056521604594362986	-0.43181343890527335	1.7948292163039943	1.4716953264181236	1.045073714943054	1.3341229886862191
2250000	0.042982354699752805	0.06312299612782585	1.5284050258879982	0.16333543761011757	-0.42023192611655336	0.3626685536340075	0.3405229880997732	0.4734531759791359	1.3256839659567177	0.7168524931807035	0.7334627140506076	0.6358898996172125
2275000	0.04165903158182912	0.06493822748251346	1.580141997764018	0.16526332535682295	-0.6839214857736517	0.5142738563453617	0.5207420576883688	0.5897648768298164	1.5059752542139733	0.6070605373626097	0.6025464718182667	0.5553482932199045
2300000	0.03933096923333308	0.05846929184344304	1.4955944567710122	0.15906980309181964	-1.1478185697242338	-0.0260015984879503	0.22623160179472657	0.216102504562464	1.748956530301125	1.0207439365258288	0.8210212930028746	0.828907847482448
2325000	0.03884003566495779	0.039641655085425984	1.008628585941979	0.12028516561589328	-1.2456435489091238	-1.5984565710552405	-1.470051210668939	-2.1238195989994213	1.7871047131850655	1.8900585967630386	1.858452115193622	1.9663147685071314
2350000	0.04167964665591082	0.04277398496240602	1.0242891812865498	0.12201907344133314	-0.6798136607585252	-1.3368492459255465	-1.415499546358833	-2.019210931487601	1.5033775442535378	1.8187281493283773	1.8430779186798831	1.9565346993785564
2375000	0.045206367752279764	0.059504547643618844	1.3560542429480564	0.15394977875264726	0.0229319652636716	0.06046135763278522	-0.25983873810900476	-0.0927944943959657	0.9817045425020138	0.9517881916605737	1.2050118317373804	1.073933175024925
2400000	0.04622593740719411	0.06152068140121547	1.4048355515422546	0.15873646770528563	0.22609464692673675	0.22884571692544292	-0.08991534040363314	0.1959919945871052	0.821127807937658	0.8189888325299614	1.0716455093477935	0.844616431878719
2425000	0.041400927879097556	0.04145991285403051	1.2154778867102396	0.1314348737497487	-0.7353520478165324	-1.446598506955197	-0.7495183464951478	-1.451144792463825	1.5378748823670363	1.8519905953738975	1.5464551550562171	1.8532604540214797
2450000	0.047296967076980424	0.10424853801169592	2.3439888888888887	0.20190667641325535	0.43951141429097657	3.797409921654046	3.181504198088604	2.8005006904298377	0.6602910132032549	0.00014621588385019732	0.001465123994673757	0.005102339833009132
2475000	0.054131362964922526	0.10287908496732028	2.034849076940718	0.1993013369125629	1.8013548052243649	3.6830353308860917	2.1046555294885065	2.643317540561875	0.07164697474843772	0.00023047320185000134	0.03532130415668346	0.008209800064767663
2500000	0.05488399634548278	0.10000967922256622	1.920145958032336	0.19825227940032727	1.9513269186221536	3.4433870208170974	1.705102006755955	2.580026685714735	0.051018168874598264	0.0005744765644286876	0.08817540143215169	0.009879268057707646
2525000	0.05074745897179302	0.08967375874326339	1.7888641153537437	0.19490842589088628	1.1270673679503544	2.5801469996381683	1.247798637743389	2.3782881302707	0.25971399889173996	0.009875826621286776	0.21210480769983664	0.01739322908773638
2550000	0.05575247738584785	0.08051129221554462	1.5937523923996846	0.18079157869381476	2.1243832039712096	1.814912029489416	0.568152112220577	1.5266023871839827	0.033638113312887456	0.06953742958855706	0.5699316850211189	0.12685991307083025
2575000	0.04916913512501529	0.07170574707834772	1.5393431603120145	0.17335380189641303	0.8125655546622121	1.0794865793858577	0.3786245687963597	1.077872697744379	0.4164671871713469	0.28037087335830113	0.7049666749483012	0.2810905710833237
2600000	0.04296042094606371	0.06875363011695908	1.6360471477468177	0.17249143088468505	-0.4246025154107075	0.8329303569986188	0.7154804381883857	1.025844855713734	1.3288735409889791	0.40488400770364386	0.4743122241575015	0.30496471897406774
2625000	0.04205983418092067	0.06972703852769177	1.7335582371287694	0.17026723376032757	-0.6040562892601219	0.9142279152353784	1.055147743130347	0.891656466891143	1.454193780900074	0.3605970988100742	0.29135775952439913	0.3725770939410955
2650000	0.04097450459425115	0.06480395465306865	1.6414563612173456	0.16643116408024097	-0.820322503395898	0.5030595982281679	0.7343227357469037	0.6602219397330725	1.587967718904591	0.6149223709360447	0.4627520643745564	0.5091114149206211
2675000	0.038310908917521695	0.06142493575345515	1.7302345134462453	0.16453749358243228	-1.3510790220331286	0.22084918916907004	1.0435699803059304	0.5459746051425157	1.8233298793795267	0.8252098616481022	0.2966843878963008	0.5850833935727638
2750000	0.05205177795767201	0.07919503866229939	1.5664210861339196	0.17464198091397581	1.3869701040096045	1.7049805775732056	0.47294703145820366	1.1555900299847728	0.16545087918110157	0.08819804683755401	0.6362509695694201	0.2478488880048323
2775000	0.0485742287711459	0.07293726256371769	1.4847391060762425	0.17101163252342208	0.6940226286267612	1.1823408395169939	0.18841838754327403	0.9365669065132777	0.4876680180537186	0.23707048709725287	0.8505486866608657	0.34898138156552816
2800000	0.0476965469366972	0.07153501386106559	1.5579402756025007	0.17484319356822048	0.5191329638803774	1.0652272063191144	0.4434052216477633	1.1677294224820132	0.6036680224601314	0.28677312478811445	0.6574726597026491	0.24291592473597245
2825000	0.04501253241395384	0.07182641004471964	1.6265337819057448	0.1766813109532694	-0.015692278745111535	1.089564162882653	0.6823418551139335	1.2786251734320375	1.0125201130911052	0.27590517658659097	0.49502281286888683	0.20102908088763327
2850000	0.03511966054004965	0.0591228657837404	1.6849141775599128	0.17452275357218916	-1.986977290577215	0.02858388165327744	0.8857024347052731	1.1483969063525439	1.9530750865091844	0.9771964674098564	0.37577789600059797	0.2508047502367666
2875000	0.039463521393087134	0.06918358624011006	2.9222758775369795	0.17945344143431435	-1.1214058061567203	0.8688396244507134	5.1958923478066374	1.4458710163403534	1.7378848341845399	0.3849348565726023	2.0374014113803485e-07	0.1482133826530356
2900000	0.04296538387902305	0.06944593828434557	2.7451287957548183	0.1747014865988037	-0.423613585655812	0.89075085961121	4.578823333106276	1.1591800768764773	1.3281523542545752	0.37306284312191895	4.675989214173388e-06	0.24638279064534796
2925000	0.040506653227093785	0.06312514774681802	1.6353296785345717	0.17235876850824156	-0.913548049991247	0.3628482535096101	0.7129812267115468	1.017841180878721	1.6390456255337655	0.7167182436929125	0.47585737409367956	0.30875343801784305
2950000	0.03814621556451021	0.06661915407949465	1.7504863874034458	0.17761737784642187	-1.3838963416626606	0.6546622343407136	1.114114771577022	1.3350991733517101	1.8336098028825547	0.5126852454110333	0.26522995235001434	0.18184388999714063
2975000	0.04299466190695401	0.08309122807017544	1.9876818713450293	0.18440377764334204	-0.41777955299351294	2.0303842640379934	1.9403546514255405	1.7445305338556698	1.3238916982142241	0.04231749492145143	0.052336603798047006	0.08106662191671041
