low-high	dnds	dn	ds	Pi	numgenes
0-50000	0.053887762697878545	0.05047302250358117	1.1695066962401615	0.14217849680561537	67
25000-75000	0.0418309922858286	0.059176597534316505	1.4742513315467674	0.16247081359938165	62
50000-100000	0.04405958250188962	0.0595435723452674	1.4539662534730493	0.16072559528072683	52
75000-125000	0.04306081515767975	0.054886685273790536	1.332659232677654	0.1503793461701155	66
100000-150000	0.035406725770899206	0.044730823515078545	1.3146662178219242	0.14211813022401362	48
125000-175000	0.03112146762172127	0.0417679781152227	1.3681733461103742	0.1424432008183918	21
150000-200000	0.04337713075984736	0.04772185129490392	1.2688852280701752	0.13757426217172142	35
175000-225000	0.0506161446801236	0.053717177571379435	1.2588820734090127	0.14639956357783848	50
200000-250000	0.051293965757534865	0.06218967110040897	1.3204364089235432	0.15973701805100346	54
225000-275000	0.044183829021197656	0.057945747211165174	1.317377537553033	0.15468952430907756	42
250000-300000	0.041905566024859835	0.05136236110111119	1.4157255102759179	0.1488511462283997	43
275000-325000	0.03922451559315044	0.04930344996990024	1.3973877438617992	0.14669703194457528	64
300000-350000	0.0405030663952428	0.05494755977593973	1.3695577421458243	0.1517711237094902	67
325000-375000	0.04143371960475803	0.05799261049319015	1.4433170162060922	0.1542667161191163	54
350000-400000	nan	nan	nan	0.13925197788533092	70
375000-425000	nan	nan	nan	0.14518462662565415	82
400000-450000	0.04883838324431392	0.060505542999656	1.3326825473569548	0.15326368500203197	60
425000-475000	0.04899558124705476	0.057891757041382254	1.2711404200387455	0.14832107871344574	57
450000-500000	0.041435064923301866	0.05524794225146199	1.3640341438230996	0.14747724443853713	64
475000-525000	0.042834030111255375	0.05251508223684213	1.3258493540914174	0.1427675622947475	64
500000-550000	0.046020687148684285	0.0589376444174161	1.3751374926286304	0.15109068846505488	56
525000-575000	0.04258566024696446	0.06360000343997249	1.502037948854981	0.16269526165744774	56
550000-600000	0.039878896664801065	0.05388690920965385	1.384277023177438	0.1530173447297595	69
575000-625000	0.04572956777982034	0.04808959205696215	1.2319006707475109	0.14379363016332472	73
600000-650000	0.05509684617653392	0.046088939122604665	1.0943203412655054	0.13521042266594782	68
625000-675000	0.05881237244876847	0.03301383022341227	0.751634392287024	0.09807040449044814	74
650000-700000	0.04924557525173247	0.0350502917678067	0.9299209104298998	0.10536204732138507	71
675000-725000	0.0407525884407539	0.05390605584221992	1.3714641233230134	0.14863925131242778	60
700000-750000	0.04836477136317209	0.05811656990962253	1.2830110909090908	0.15208502230640128	55
725000-775000	0.0464678639222346	0.05901095274728712	1.3916689145948646	0.1573374956778502	55
750000-800000	0.039063925743857586	0.05220944400715982	1.4010899809343897	0.15293246842873234	59
775000-825000	0.03749562794376698	0.05447931866110288	1.4576332282646087	0.15875606355400865	46
800000-850000	0.043613012718355305	0.052928380316115374	1.3698521877319718	0.1486793340932631	38
825000-875000	0.04550643322501715	0.05591030181663306	1.3773175990630169	0.14983802179508382	42
850000-900000	0.053071446081608666	0.058769098727210166	1.3597991182490543	0.15529743564804777	40
875000-925000	0.05614767763824594	0.058390589095287264	1.2379166713249632	0.15481135585343578	48
900000-950000	0.05090701594984954	0.0520058501891985	1.1566505150785464	0.14284682870922114	60
925000-975000	0.048632082373121575	0.050047993299531864	1.2065664811574266	0.14150587982265767	69
950000-1000000	0.04578142296354455	0.057362840222833764	1.3272677988476091	0.1579136186599809	72
975000-1025000	0.04574725625382709	0.05631446770059642	1.2954059155898583	0.15469390136490663	71
1000000-1050000	0.049077023171540536	0.05852000025170532	1.3321028112126327	0.15445279516566457	82
1025000-1075000	0.05044849296619507	0.057803882097148374	1.268067591004913	0.15193437671084237	78
1050000-1100000	0.04739002015919426	0.05747368616658911	1.3079309758055266	0.15090737442108013	51
1075000-1125000	0.0443730106158989	0.051950947678693085	1.2396306804400468	0.1406256035697949	51
1100000-1150000	0.043562517809607494	0.047182572091147415	1.1147707622504537	0.1347482306237903	58
1125000-1175000	0.04394169976208007	0.06063556032939491	1.3841964996524925	0.15786712016706503	49
1150000-1200000	0.047176661039683106	0.054839857359761796	1.2975000094302696	0.14632261185771384	58
1175000-1225000	0.05183709380678816	0.05094033899955214	1.1762830356134504	0.13993850293669036	53
1200000-1250000	0.04899578761073915	0.062348143158638514	1.4385084251434093	0.16032101804437593	37
1225000-1275000	0.042941722194540725	0.06305933812779498	1.4729285793988653	0.16320315708594013	32
1250000-1300000	0.04817656099233535	0.05281159341897677	1.212959720650511	0.14718854138274445	58
1275000-1325000	0.045985433605076925	0.048544243689800474	1.270826692735208	0.1429639668632231	64
1300000-1350000	0.04508662327074288	0.05510082511891629	1.365759312005504	0.15291621359240254	58
1325000-1375000	0.045177356606951775	0.05958573187738823	1.3480568440111937	0.15715999024145696	74
1350000-1400000	0.04515533309130073	0.06107125578937399	1.392836034958097	0.15796781991618636	69
1375000-1425000	0.04513489433599101	0.05768829033367733	1.3513258787350393	0.15322976653411283	58
1400000-1450000	0.040434971915947124	0.045742382213395126	1.1885503474372205	0.13800479361871454	53
1425000-1475000	0.04059518547949783	0.04499255159958721	1.1629694673571183	0.1382536010428103	56
1450000-1500000	0.04993379221833818	0.05489736200754464	1.2502100952114412	0.14926304101121807	59
1475000-1525000	0.054705939938273065	0.05773763458892328	1.2429858771929825	0.15131633616274132	64
1500000-1550000	0.0491809613700532	0.057599850934525874	1.3135694059740852	0.15393162963768217	60
1525000-1575000	0.045010907055951135	0.06373592100204375	1.50714984088441	0.16376403405081788	51
1550000-1600000	0.04401851896128072	0.05862177619409234	1.444905483121418	0.15647165590927192	53
1575000-1625000	0.04153318205030511	0.0483452196668141	1.2958461056235362	0.1436048736314884	42
1600000-1650000	0.04511752931263202	0.04994278862692176	1.3661527473472523	0.14473807967371652	26
1625000-1675000	0.04513325309883644	0.04820017108804305	1.2966382392399685	0.13986863828425117	34
1650000-1700000	0.04451860897907147	0.05873823676839155	1.4017216903369536	0.15577273358529697	42
1675000-1725000	0.04189450158190452	0.061580515665105445	1.5204899280913449	0.15848572762232901	52
1700000-1750000	0.044319125394322395	0.06008633478633663	1.4197162497111966	0.15739722494896544	67
1725000-1775000	0.0469417770511442	0.059704530013759895	1.366133607957803	0.15992032623755356	72
1750000-1800000	0.04177622887048886	0.052123442329498386	1.33137124571596	0.15090162336869303	54
1775000-1825000	0.040017727910956605	0.048984700541343046	1.217687311299404	0.145981465026051	38
1800000-1850000	0.04253874961333926	0.05512284829721362	1.3289818280013759	0.1514406509044043	35
1825000-1875000	0.04032594111716085	0.05888854685733943	1.4996754572706277	0.15669301992952536	35
1850000-1900000	0.043739258683272726	0.050454236244205274	1.3357000731403672	0.14650709417070007	42
1875000-1925000	0.04642677984238862	0.05663170724560132	1.393212686299991	0.15620971022881427	54
1900000-1950000	0.046515030197548754	0.05973795567349748	1.4437464293085656	0.16127681786064488	63
1925000-1975000	0.04709878750660087	0.057996784657722754	1.4592231009287928	0.16045997411336502	50
1950000-2000000	0.04690280419983106	0.06028197089574799	1.4824226805724952	0.1642957006418671	33
1975000-2025000	0.04653772782317547	0.051033718020541546	1.3313503774141235	0.1407720384460772	35
2000000-2050000	0.052336477390224664	0.05284666291955376	1.2351378245245466	0.14148561590871753	56
2025000-2075000	0.049917359359360494	0.05611121566170326	1.3132457566096611	0.15434062043291802	56
2050000-2100000	0.04723658330779124	0.0522911594236135	1.2980423563811492	0.14854353681807814	45
2075000-2125000	0.048590876006922204	0.05233745605435156	1.253686531045752	0.1440989906528606	40
2100000-2150000	0.03998848644624017	0.06326939764895675	1.6397920157052537	0.16948712233298208	29
2125000-2175000	0.04049205936993674	0.07184605656297605	1.8531564659197013	0.1826430638881084	14
2150000-2200000	0.05103396265784017	0.09597755303290907	1.9231593108588467	0.20006995731199895	9
2175000-2225000	0.041893821206898746	0.07156541432557428	1.670449136184688	0.17108780481502459	18
2200000-2250000	0.03161612037713143	0.049050142860033584	1.5395267476071957	0.1461481257729257	17
2225000-2275000	0.03873307600491125	0.051230238791423015	1.4144221661793372	0.14833047764845692	24
2250000-2300000	0.042982354699752805	0.06312299612782585	1.5284050258879982	0.16333543761011757	39
2275000-2325000	0.04165903158182912	0.06493822748251346	1.580141997764018	0.16526332535682295	48
2300000-2350000	0.03933096923333308	0.05846929184344304	1.4955944567710122	0.15906980309181964	36
2325000-2375000	0.03884003566495779	0.039641655085425984	1.008628585941979	0.12028516561589328	30
2350000-2400000	0.04167964665591082	0.04277398496240602	1.0242891812865498	0.12201907344133314	42
2375000-2425000	0.045206367752279764	0.059504547643618844	1.3560542429480564	0.15394977875264726	40
2400000-2450000	0.04622593740719411	0.06152068140121547	1.4048355515422546	0.15873646770528563	24
2425000-2475000	0.041400927879097556	0.04145991285403051	1.2154778867102396	0.1314348737497487	6
2450000-2500000	0.047296967076980424	0.10424853801169592	2.3439888888888887	0.20190667641325535	1
2475000-2525000	0.054131362964922526	0.10287908496732028	2.034849076940718	0.1993013369125629	6
2500000-2550000	0.05488399634548278	0.10000967922256622	1.920145958032336	0.19825227940032727	8
2525000-2575000	0.05074745897179302	0.08967375874326339	1.7888641153537437	0.19490842589088628	6
2550000-2600000	0.05575247738584785	0.08051129221554462	1.5937523923996846	0.18079157869381476	17
2575000-2625000	0.04916913512501529	0.07170574707834772	1.5393431603120145	0.17335380189641303	37
2600000-2650000	0.04296042094606371	0.06875363011695908	1.6360471477468177	0.17249143088468505	40
2625000-2675000	0.04205983418092067	0.06972703852769177	1.7335582371287694	0.17026723376032757	30
2650000-2700000	0.04097450459425115	0.06480395465306865	1.6414563612173456	0.16643116408024097	34
2675000-2725000	0.038310908917521695	0.06142493575345515	1.7302345134462453	0.16453749358243228	34
2700000-2750000	nan	nan	nan	0.16022423076972234	25
2725000-2775000	nan	nan	nan	0.16670403772180642	19
2750000-2800000	0.05205177795767201	0.07919503866229939	1.5664210861339196	0.17464198091397581	23
2775000-2825000	0.0485742287711459	0.07293726256371769	1.4847391060762425	0.17101163252342208	22
2800000-2850000	0.0476965469366972	0.07153501386106559	1.5579402756025007	0.17484319356822048	17
2825000-2875000	0.04501253241395384	0.07182641004471964	1.6265337819057448	0.1766813109532694	15
2850000-2900000	0.03511966054004965	0.0591228657837404	1.6849141775599128	0.17452275357218916	12
2875000-2925000	0.039463521393087134	0.06918358624011006	2.9222758775369795	0.17945344143431435	25
2900000-2950000	0.04296538387902305	0.06944593828434557	2.7451287957548183	0.1747014865988037	27
2925000-2975000	0.040506653227093785	0.06312514774681802	1.6353296785345717	0.17235876850824156	20
2950000-3000000	0.03814621556451021	0.06661915407949465	1.7504863874034458	0.17761737784642187	11
2975000-3025000	0.04299466190695401	0.08309122807017544	1.9876818713450293	0.18440377764334204	1
